,BJD_TDB,Flux,Err
0,2459588.819202,1.00534,0.00198
1,2459588.819844,1.00487,0.00197
2,2459588.820501,1.00425,0.00196
3,2459588.821143,1.00584,0.00195
4,2459588.821785,1.00234,0.00196
5,2459588.82247,1.00264,0.00196
6,2459588.823112,1.00303,0.00194
7,2459588.823753,1.00246,0.00197
8,2459588.824394,1.00288,0.00194
9,2459588.825036,1.00114,0.00195
10,2459588.825678,1.00063,0.00195
11,2459588.826319,1.00088,0.00195
12,2459588.826953,0.99925,0.00196
13,2459588.827593,0.99427,0.00196
14,2459588.828235,1.00038,0.00197
15,2459588.828876,1.00021,0.00198
16,2459588.829517,0.99896,0.00197
17,2459588.830157,1.00439,0.00195
18,2459588.830805,1.00496,0.00194
19,2459588.831446,1.00321,0.00194
20,2459588.832086,1.00431,0.00193
21,2459588.83272,1.00162,0.00194
22,2459588.833368,0.99789,0.00194
23,2459588.834009,0.99869,0.00193
24,2459588.834651,1.00012,0.00193
25,2459588.835284,1.00199,0.00193
26,2459588.835932,1.00055,0.00193
27,2459588.836573,0.99691,0.00192
28,2459588.837213,0.99609,0.00192
29,2459588.837853,0.99515,0.00193
30,2459588.838494,0.99391,0.00193
31,2459588.839134,0.99587,0.00193
32,2459588.839775,0.99094,0.00193
33,2459588.840414,0.99143,0.00192
34,2459588.841055,0.99277,0.00192
35,2459588.841695,0.99187,0.00192
36,2459588.842343,0.99349,0.00195
37,2459588.842975,0.99471,0.00195
38,2459588.843623,0.99141,0.00194
39,2459588.844262,0.99441,0.00195
40,2459588.844901,0.99321,0.00193
41,2459588.845542,0.99159,0.00193
42,2459588.846182,0.99514,0.00194
43,2459588.846822,0.99069,0.00193
44,2459588.847462,0.99284,0.00193
45,2459588.848109,0.99004,0.00194
46,2459588.848749,0.99347,0.00194
47,2459588.849389,0.99522,0.00195
48,2459588.850029,0.99359,0.00194
49,2459588.850668,0.99246,0.00194
50,2459588.851307,0.99456,0.00196
51,2459588.851947,0.9894,0.00194
52,2459588.852586,0.99352,0.00195
53,2459588.853254,0.99142,0.00193
54,2459588.853894,0.99256,0.00195
55,2459588.85454,0.99147,0.00196
56,2459588.85518,0.99185,0.00197
57,2459588.85582,0.9913,0.00199
58,2459588.856459,0.989,0.00197
59,2459588.857098,0.99279,0.00199
60,2459588.857744,0.99911,0.00199
61,2459588.858383,0.99517,0.00198
62,2459588.859022,0.99558,0.00199
63,2459588.85966,0.99415,0.00197
64,2459588.860307,0.99386,0.00196
65,2459588.860945,0.99582,0.00195
66,2459588.861591,0.99522,0.00194
68,2459588.862869,0.99173,0.00194
69,2459588.863515,0.99796,0.00196
70,2459588.864154,0.992,0.00194
71,2459588.864792,0.99324,0.00192
72,2459588.865437,0.99519,0.00194
73,2459588.866075,0.99438,0.00193
74,2459588.866714,0.99192,0.00193
75,2459588.867359,0.99465,0.00193
76,2459588.867997,0.99379,0.00193
77,2459588.868635,0.99611,0.00194
78,2459588.869281,0.99601,0.00194
79,2459588.869926,0.99503,0.00193
80,2459588.870564,0.99455,0.00192
81,2459588.87121,0.99181,0.00192
82,2459588.871848,0.99375,0.00192
83,2459588.872485,0.9931,0.00192
84,2459588.87313,0.99355,0.00192
85,2459588.873768,0.99288,0.00191
86,2459588.874434,0.9898,0.00192
87,2459588.875079,0.98723,0.00192
88,2459588.875717,0.99059,0.00192
89,2459588.876362,0.9861,0.00192
90,2459588.877,0.98823,0.00191
91,2459588.877645,0.98394,0.00192
92,2459588.878282,0.98104,0.00193
93,2459588.878948,0.98157,0.00193
94,2459588.879593,0.98248,0.00192
95,2459588.88023,0.98189,0.00193
96,2459588.880874,0.98431,0.00194
97,2459588.881511,0.98338,0.00193
98,2459588.882155,0.98258,0.00193
99,2459588.882792,0.98483,0.00194
100,2459588.883436,0.98164,0.00196
101,2459588.884074,0.9826,0.00196
102,2459588.884718,0.98157,0.00197
103,2459588.885355,0.98337,0.00197
104,2459588.885999,0.98458,0.00198
105,2459588.886634,0.98391,0.00196
106,2459588.887278,0.98354,0.00195
107,2459588.887922,0.98014,0.00196
108,2459588.888559,0.9816,0.00195
109,2459588.889202,0.98151,0.00195
110,2459588.889839,0.98493,0.00194
111,2459588.890525,0.9812,0.00195
112,2459588.891162,0.98646,0.00195
113,2459588.891805,0.98303,0.00195
114,2459588.892442,0.98843,0.00197
115,2459588.893085,0.98691,0.00194
116,2459588.893728,0.98918,0.00196
117,2459588.894363,0.98615,0.00194
118,2459588.895006,0.98711,0.00196
119,2459588.895649,0.98937,0.00196
120,2459588.896285,0.98614,0.00198
121,2459588.896929,0.98551,0.00201
122,2459588.897565,0.98682,0.00201
123,2459588.898208,0.98782,0.00201
124,2459588.898851,0.98951,0.002
125,2459588.899486,0.99158,0.00199
126,2459588.900129,0.98998,0.00197
127,2459588.900771,0.99109,0.00196
128,2459588.901407,0.99635,0.00198
129,2459588.90205,0.99485,0.00197
130,2459588.902692,1.00003,0.00197
131,2459588.903328,0.99904,0.00198
132,2459588.903971,1.0017,0.00199
133,2459588.904613,1.00187,0.00197
134,2459588.905256,1.00001,0.00196
135,2459588.905899,0.99983,0.00195
136,2459588.906534,1.00095,0.00195
137,2459588.907177,0.99986,0.00195
138,2459588.907819,0.99776,0.00196
139,2459588.908461,1.00487,0.00198
140,2459588.909096,1.00126,0.00198
141,2459588.909738,1.00034,0.00199
142,2459588.910381,1.00164,0.00197
143,2459588.911023,1.00053,0.00198
144,2459588.911659,0.99721,0.00198
145,2459588.912301,0.99912,0.00197
146,2459588.912944,1.00083,0.00199
147,2459588.913586,1.0,0.002
148,2459588.91422,1.00042,0.00199
149,2459588.914862,1.00192,0.00203
150,2459588.915503,0.99894,0.00201
151,2459588.916145,1.00263,0.00199
152,2459588.916787,0.99682,0.00199
153,2459588.917422,1.00223,0.00198
154,2459588.918064,1.00099,0.00199
155,2459588.918706,1.00311,0.00199
158,2459588.92063,1.00497,0.00198
159,2459588.921272,1.0051,0.00197
160,2459588.921913,1.00652,0.00195
161,2459588.922554,1.00575,0.00196
162,2459588.923195,1.00728,0.00196
163,2459588.923836,1.00628,0.00197
164,2459588.924477,1.00524,0.00195
165,2459588.925147,1.00295,0.00194
166,2459588.925788,1.00505,0.00195
167,2459588.926429,1.0026,0.00195
168,2459588.92707,1.00191,0.00196
169,2459588.927712,1.00376,0.00195
170,2459588.928352,1.00488,0.00194
171,2459588.928992,1.00471,0.00195
172,2459588.929632,1.00639,0.00194
173,2459588.930273,1.00508,0.00194
174,2459588.930913,1.00802,0.00195
175,2459588.931554,1.00657,0.00195
176,2459588.932195,1.00484,0.00194
177,2459588.932835,1.00647,0.00194
178,2459588.933476,1.00405,0.00194
179,2459588.934116,1.00757,0.00195
180,2459588.934757,1.004,0.00195
181,2459588.935397,1.0032,0.00194
182,2459588.936038,1.00764,0.00195
183,2459588.936685,1.00569,0.00195
184,2459588.937325,1.0073,0.00195
185,2459588.937965,1.00586,0.00194
186,2459588.938605,1.00724,0.00195
187,2459588.939245,1.00635,0.00196
188,2459588.939885,1.00427,0.00195
189,2459588.940525,1.0028,0.00195
190,2459588.941165,1.0032,0.00195
191,2459588.941805,1.00684,0.00196
192,2459588.942451,1.00091,0.00198
193,2459588.94309,1.00488,0.00202
194,2459588.943729,1.00605,0.00201
195,2459588.944368,1.00395,0.00197
196,2459588.945008,0.99944,0.00196
197,2459588.945654,1.004,0.00197
198,2459588.946294,1.00481,0.00196
199,2459588.946933,1.00494,0.00199
200,2459588.947573,1.00262,0.00198
201,2459588.948212,1.0035,0.002
202,2459588.948851,1.00526,0.00199
203,2459588.949491,1.00329,0.00199
204,2459588.950137,1.00287,0.00199
205,2459588.950776,1.00345,0.00199
206,2459588.951415,1.00226,0.00199
207,2459588.952053,1.00602,0.00197
208,2459588.952699,1.00145,0.00196
209,2459588.953338,1.00654,0.00197
210,2459588.953977,1.00602,0.00197
211,2459588.954617,1.00151,0.00196
212,2459588.955262,1.00079,0.00198
213,2459588.9559,1.00321,0.00198
214,2459588.956539,1.0061,0.00199
215,2459588.957177,1.0019,0.00198
216,2459588.957822,1.006,0.00198
217,2459588.95846,0.99832,0.00198
218,2459588.959098,1.00489,0.00198
219,2459588.959743,1.00138,0.00197
220,2459588.960382,1.00292,0.00197
221,2459588.96102,1.00073,0.00198
222,2459588.961666,1.00261,0.00199
223,2459588.962304,1.00382,0.002
224,2459588.962941,1.00528,0.00202
225,2459588.963586,1.00632,0.00203
226,2459588.964224,1.00096,0.00201
227,2459588.964862,1.00278,0.00202
228,2459588.965506,1.00294,0.002
229,2459588.966144,1.00454,0.00201
